Time(s),R1(O),R2(O),R3(O),R4(O),Angle1(deg),Angle2(deg)
1734296232.5462651,96.05,90.58,100.99,99.2,-5.391315739529546,4.436474485657357
1734296232.604993,96.05,90.58,100.97,99.2,-5.391315739529546,4.436474485657357
1734296232.654533,96.05,90.58,100.94,99.2,-5.383425932430825,4.436474485657357
1734296232.697383,96.05,90.58,100.91,99.2,-5.856740032056408,4.436474485657357
1734296232.7697363,96.05,90.58,100.89,99.2,-5.856740032056408,4.436474485657357
1734296232.812323,96.05,90.58,100.86,99.2,-4.900027482909749,3.94518622903756
1734296232.865018,96.05,90.58,100.84,99.2,-4.900027482909749,3.94518622903756
1734296232.928018,96.05,90.58,100.81,99.2,-4.900027482909749,3.94518622903756
1734296232.963222,96.05,90.58,100.78,99.2,-4.892137675811028,3.94518622903756
1734296233.0238605,96.05,90.58,100.76,99.2,-4.900027482909749,3.94518622903756
1734296233.078318,96.05,90.58,100.76,99.2,-4.900027482909749,3.94518622903756
1734296233.1289933,96.08,90.58,100.73,99.17,-4.900027482909749,3.94518622903756
1734296233.18329,96.1,90.58,100.73,99.2,-4.900027482909749,3.94518622903756
1734296233.2307577,96.15,90.58,100.76,99.25,-4.900027482909749,3.94518622903756
1734296233.2817662,96.23,90.58,100.78,99.32,-4.900027482909749,3.94518622903756
1734296233.3318188,96.33,90.58,100.81,99.38,-4.892137675811028,3.94518622903756
1734296233.3874989,96.43,90.58,100.86,99.45,-4.892137675811028,3.94518622903756
1734296233.4417927,96.53,90.58,100.91,99.53,-4.892137675811028,3.94518622903756
1734296233.4966028,96.58,90.58,100.97,99.61,-4.8664130664008525,3.911571812528664
1734296233.530738,96.63,90.58,101.02,99.66,-4.8664130664008525,3.911571812528664
1734296233.5886562,96.68,90.58,101.07,99.71,-4.892137675811028,3.94518622903756
1734296233.637711,96.71,90.58,101.15,99.77,-4.8664130664008525,3.911571812528664
1734296233.6934588,96.76,90.58,101.2,99.82,-4.892137675811028,3.94518622903756
1734296233.7610748,96.78,90.56,101.26,99.85,-4.8664130664008525,3.911571812528664
1734296233.8136206,96.81,90.56,101.31,99.87,-4.8664130664008525,3.911571812528664
1734296233.8516994,96.83,90.56,101.5,99.9,-5.343667996693313,3.911571812528664
1734296233.9079435,96.81,90.56,101.6,99.92,-4.8664130664008525,3.911571812528664
1734296233.9597456,96.81,90.56,101.9,99.92,-5.355697343464513,3.911571812528664
1734296234.0237706,96.78,90.56,102.06,99.9,-5.365451775436611,3.94518622903756
1734296234.0780618,96.71,90.56,102.3,99.85,-5.343667996693313,3.911571812528664
1734296234.134379,96.63,90.56,102.38,99.79,-4.8664130664008525,3.911571812528664
1734296234.1799204,96.56,90.56,102.59,99.74,-5.355697343464513,3.911571812528664
1734296234.2428768,96.48,90.56,102.62,99.69,-4.8664130664008525,3.911571812528664
1734296234.291231,96.46,90.56,102.62,99.64,-5.355697343464513,3.911571812528664
1734296234.3286114,96.43,90.56,102.65,99.61,-4.8664130664008525,3.911571812528664
1734296234.407872,96.38,90.56,102.67,99.56,-5.343667996693313,3.911571812528664
1734296234.4578142,96.38,90.56,102.67,99.53,-5.355697343464513,3.911571812528664
1734296234.5078652,96.35,90.56,102.7,99.51,-5.343667996693313,3.911571812528664
1734296234.5576684,96.35,90.58,102.73,99.51,-4.8664130664008525,3.911571812528664
1734296234.6079755,96.35,90.58,102.75,99.51,-4.8664130664008525,3.911571812528664
1734296234.6598706,96.33,90.58,102.62,99.48,-5.343667996693313,3.911571812528664
1734296234.7087724,96.33,90.58,102.59,99.48,-5.355697343464513,3.911571812528664
1734296234.7552447,96.33,90.58,102.48,99.48,-5.355697343464513,3.911571812528664
1734296234.8127897,96.3,90.58,102.4,99.45,-4.8664130664008525,3.911571812528664
1734296234.8729546,96.3,90.58,102.24,99.43,-4.8664130664008525,3.911571812528664
1734296234.9263992,96.28,90.58,102.24,99.4,-4.8664130664008525,3.911571812528664
1734296234.974369,96.25,90.58,102.19,99.4,-4.8664130664008525,3.911571812528664
1734296235.0267148,96.23,90.58,102.22,99.4,-4.8664130664008525,3.911571812528664
1734296235.077982,96.2,90.58,102.27,99.38,-4.389025589838241,3.911571812528664
1734296235.130676,96.18,90.58,102.35,99.35,-4.389025589838241,3.911571812528664
1734296235.191779,96.18,90.58,102.38,99.35,-4.418694287772496,3.94518622903756
1734296235.2323978,96.15,90.58,102.4,99.32,-4.418694287772496,3.94518622903756
1734296235.2938874,96.13,90.58,102.43,99.32,-4.436474485657357,4.436474485657357
1734296235.348852,96.1,90.58,102.46,99.3,-4.436474485657357,4.436474485657357
1734296235.4032817,96.08,90.58,102.48,99.3,-4.436474485657357,4.436474485657357
1734296235.447853,96.08,90.58,102.51,99.32,-4.436474485657357,4.436474485657357
1734296235.4962204,96.08,90.58,102.54,99.32,-3.9590207083477793,4.436474485657357
1734296235.5593398,96.08,90.58,102.43,99.32,-3.9590207083477793,4.436474485657357
1734296235.6084683,96.1,90.58,102.43,99.35,-4.449656170339438,4.927109947649015
1734296235.6564286,96.13,90.58,102.38,99.38,-4.449656170339438,4.927109947649015
1734296235.7112684,96.15,90.58,102.32,99.4,-4.449656170339438,4.927109947649015
1734296235.7694435,96.18,90.58,102.16,99.4,-3.9801585008755462,4.927109947649015
1734296235.8158638,96.23,90.58,102.11,99.43,-3.922338942481076,4.885202568117293
1734296235.8712676,96.28,90.58,102.06,99.48,-3.9801585008755462,4.927109947649015
1734296235.942741,96.33,90.58,101.98,99.53,-3.97226869377684,4.927109947649015
1734296236.070554,96.38,90.58,101.92,99.58,-3.4950137634843657,4.927109947649015
1734296236.19296,96.43,90.58,101.87,99.64,-4.462180859984429,5.417022113856604
1734296236.3100414,96.48,90.58,101.84,99.66,-4.462180859984429,5.417022113856604
1734296236.4472425,96.53,90.58,101.82,99.71,-3.984925929691954,5.417022113856604
1734296236.5706618,96.58,90.58,101.79,99.74,-3.984925929691954,5.417022113856604
1734296236.6958826,96.63,90.58,101.74,99.77,-3.5078696808602245,5.417022113856604
1734296236.806975,96.68,90.56,101.68,99.79,-3.9969886807741233,5.906141113770502
1734296236.9420636,96.71,90.56,101.66,99.82,-3.9969886807741233,5.906141113770502
1734296237.065589,96.73,90.56,101.6,99.85,-3.9969886807741233,5.906141113770502
1734296237.1917796,96.76,90.56,101.63,99.87,-3.9969886807741233,5.906141113770502
1734296237.3070474,96.78,90.56,101.63,99.9,-3.9969886807741233,5.906141113770502
1734296237.4412746,96.81,90.56,101.63,99.92,-3.5201970833816887,5.906141113770502
1734296237.5688636,96.81,90.53,101.63,99.92,-3.5201970833816887,5.906141113770502
1734296237.696721,96.81,90.53,101.63,99.92,-3.5201970833816887,5.906141113770502
1734296237.8233795,96.83,90.51,101.6,99.92,-4.485245332231202,6.3943977652275805
1734296237.946857,96.86,90.51,101.6,99.92,-4.008453734838767,6.3943977652275805
1734296238.072514,96.86,90.51,101.6,99.92,-4.008453734838767,6.3943977652275805
1734296238.1873517,96.88,90.49,101.58,99.92,-4.008453734838767,6.3943977652275805
1734296238.327009,96.91,90.49,101.55,99.92,-3.5319925391158336,6.3943977652275805
1734296238.4543214,96.93,90.49,101.52,99.95,-3.055927221463236,6.3943977652275805
1734296238.5719402,96.96,90.49,101.52,99.98,-3.543253086872596,6.881723630636941
1734296238.695094,96.99,90.51,101.52,100.0,-3.553976237331824,7.368051071622176
1734296238.8293946,97.04,90.51,101.5,100.03,-3.1775715350533176,7.431407971172504
1734296238.9548595,97.06,90.49,101.5,100.05,-2.7069562740016124,7.431407971172504
1734296239.0723972,97.11,90.49,101.47,100.08,-3.157098210914896,7.9207399016410704
1734296239.2104335,97.16,90.49,101.47,100.11,-2.2101467641414416,7.9207399016410704
1734296239.3344748,97.21,90.49,101.47,100.13,-3.171435665788195,8.408911732600714
1734296239.465469,97.26,90.51,101.47,100.16,-2.6983185951010853,8.408911732600714
1734296239.5867171,97.31,90.51,101.47,100.19,-2.6983185951010853,8.408911732600714
1734296239.7066982,97.34,90.53,101.47,100.21,-2.2259815666524503,8.408911732600714
1734296239.8473148,97.37,90.53,101.47,100.26,-2.2259815666524503,8.408911732600714
1734296239.9688284,97.42,90.53,101.47,100.29,-2.2259815666524503,8.408911732600714
1734296240.0880988,97.44,90.56,101.47,100.32,-2.1744316370594845,8.408911732600714
1734296240.22202,97.47,90.53,101.47,100.34,-2.2259815666524503,8.408911732600714
1734296240.3552208,97.49,90.51,101.47,100.37,-2.2259815666524503,8.408911732600714
1734296240.4720128,97.52,90.51,101.47,100.39,-2.2259815666524503,8.408911732600714
1734296240.604658,97.54,90.51,101.47,100.39,-2.2259815666524503,8.408911732600714
1734296240.7307403,97.54,90.51,101.47,100.39,-2.2259815666524503,8.408911732600714
1734296240.8632655,97.57,90.51,101.47,100.39,-2.2259815666524503,8.408911732600714
1734296240.9877732,97.57,90.51,101.47,100.39,-2.2259815666524503,8.408911732600714
1734296241.1044223,97.57,90.51,101.47,100.39,-2.2259815666524503,8.408911732600714
1734296241.240875,97.57,90.51,101.47,100.42,-2.2259815666524503,8.408911732600714
1734296241.3574443,97.57,90.51,101.47,100.45,-2.6716733529913057,9.381510160748237
1734296241.4908912,97.59,90.49,101.47,100.47,-1.251407806592269,9.381510160748237
1734296241.621205,97.62,90.46,101.47,100.5,-1.8873805222543467,9.950626687951598
1734296241.7408626,97.65,90.44,101.47,100.5,-1.4198610780034642,9.950626687951598
1734296241.8696578,97.67,90.44,101.47,100.53,-1.3659777739410115,10.43747535111818
1734296242.0053527,97.7,90.41,101.47,100.55,-0.8970935462755563,10.43747535111818
1734296242.1320274,97.72,90.41,101.47,100.58,-0.9148249184279108,10.922804719869248
1734296242.2597327,97.77,90.41,101.47,100.58,-0.9148249184279108,10.922804719869248
1734296242.3715403,97.82,90.39,101.47,100.58,-1.315495345083491,11.4065525839724
1734296242.5129886,97.88,90.37,101.47,100.61,-1.315495345083491,11.4065525839724
1734296242.6408372,97.9,90.34,101.47,100.63,-0.8455418927760263,11.4065525839724
1734296242.7625494,97.95,90.37,101.47,100.66,-0.5657241430666602,11.504815326258807
1734296242.8928306,98.0,90.34,101.47,100.71,-0.8591268156474996,11.888658039627984
1734296243.0213895,98.05,90.32,101.47,100.74,-0.8591268156474996,11.888658039627984
1734296243.1444995,98.11,90.3,101.47,100.74,-1.051743795847102,11.99083497903925
1734296243.2744062,98.16,90.27,101.47,100.74,-0.0287835813730197,11.99083497903925
1734296243.3928316,98.18,90.27,101.47,100.74,-0.1264445277581245,11.99083497903925
1734296243.5230622,98.21,90.27,101.47,100.74,-0.9785466946231764,12.475109712208948
1734296243.6537976,98.23,90.27,101.47,100.74,-0.5130583145427181,12.475109712208948
1734296243.7821493,98.26,90.25,101.47,100.74,-0.5130583145427181,12.475109712208948
1734296243.9043734,98.29,90.25,101.47,100.76,-0.5130583145427181,12.475109712208948
1734296244.0334148,98.31,90.25,101.47,100.79,-0.0491668467814747,12.475109712208948
1734296244.1539185,98.31,90.25,101.47,100.82,-0.0491668467814747,12.475109712208948
1734296244.2905262,98.34,90.25,101.47,100.84,-0.4435713664341421,13.43818815835064
1734296244.4186854,98.36,90.25,101.47,100.87,0.583289333251301,13.916877433301266
1734296244.541372,98.41,90.25,101.47,100.9,0.803695693986441,14.036243467926468
1734296244.6705356,98.44,90.23,101.47,100.92,0.9054613598840432,14.51669995885463
1734296244.789214,98.47,90.23,101.47,100.92,1.3634388182206436,14.51669995885463
1734296244.923916,98.49,90.23,101.47,100.95,1.4753493104326196,14.995079129175975
1734296245.04191,98.52,90.23,101.47,100.97,1.2120355814079034,15.124007308310553
1734296245.1801052,98.54,90.23,101.47,101.0,0.9991002740884624,15.471328165520134
1734296245.3029506,98.57,90.23,101.47,101.03,1.1858832261279844,15.60394714505675
1734296245.4341958,98.59,90.23,101.47,101.05,1.7784417361711604,15.60394714505675
1734296245.5610654,98.62,90.23,101.47,101.08,2.2310677976113027,15.60394714505675
1734296245.6748078,98.65,90.23,101.47,101.11,1.753362985854352,16.0816519568137
1734296245.8092904,98.67,90.23,101.47,101.11,1.899777740150327,16.0816519568137
1734296245.93711,98.7,90.23,101.47,101.11,1.753362985854352,16.0816519568137
1734296246.0573692,98.72,90.23,101.47,101.11,2.203699870505801,16.0816519568137
1734296246.196035,98.75,90.23,101.47,101.11,2.353296866108309,16.0816519568137
1734296246.3138902,98.75,90.23,101.47,101.11,1.877877447285357,16.557071375636653
1734296246.450116,98.75,90.23,101.47,101.11,2.029855285849252,16.557071375636653
1734296246.573635,98.75,90.23,101.47,101.11,1.5861075933258917,16.69924423399361
1734296246.6982138,98.75,90.23,101.47,101.11,2.186843135715677,16.69924423399361
1734296246.8270948,98.75,90.23,101.47,101.11,2.6355643038328083,16.69924423399361
1734296246.9557052,98.75,90.23,101.47,101.11,2.0110739655523133,17.03015677288704
1734296247.084199,98.75,90.23,101.47,101.11,2.6355643038328083,16.69924423399361
1734296247.2082956,98.77,90.23,101.47,101.11,2.158904922079671,17.175903615746748
1734296247.338616,98.8,90.23,101.47,101.11,2.158904922079671,17.175903615746748
1734296247.4640784,98.83,90.23,101.47,101.11,2.605173491288298,17.175903615746748
1734296247.5920048,98.85,90.23,101.47,101.11,2.7664809659502367,17.175903615746748
1734296247.719212,98.85,90.23,101.47,101.11,2.7664809659502367,17.175903615746748
1734296247.8380787,98.88,90.23,101.47,101.11,2.7664809659502367,17.175903615746748
1734296247.972165,98.9,90.23,101.47,101.11,3.2132611645349414,17.175903615746748
1734296248.091997,98.88,90.23,101.47,101.11,3.2132611645349414,17.175903615746748
1734296248.2228067,98.9,90.23,101.44,101.11,3.2132611645349414,17.175903615746748
1734296248.35426,98.9,90.23,101.44,101.11,2.739040560351569,17.65012421993012
1734296248.4765563,98.93,90.23,101.44,101.11,2.739040560351569,17.65012421993012
1734296248.6026015,98.96,90.23,101.44,101.11,2.9978603624866054,18.27710960922012
1734296248.7354386,98.98,90.23,101.42,101.11,3.6124471606845816,18.27710960922012
1734296248.8582635,99.01,90.23,101.42,101.11,3.1397991395935776,18.749757630311123
1734296248.9758666,99.03,90.23,101.42,101.11,3.7600643425761007,18.749757630311123
1734296249.109666,99.03,90.23,101.42,101.11,4.199179650612152,18.749757630311123
1734296249.2385218,99.03,90.23,101.42,101.11,3.474021519178464,19.2197734259139
1734296249.3694596,99.03,90.23,101.42,101.11,4.0007053778559225,19.384515679357836
1734296249.497193,99.03,90.23,101.42,101.11,4.0007053778559225,19.384515679357836
1734296249.6101413,99.06,90.23,101.42,101.11,4.0007053778559225,19.384515679357836
1734296249.751278,99.06,90.23,101.42,101.11,4.434134820375931,19.384515679357836
1734296249.8659415,99.06,90.23,101.42,101.11,4.434134820375931,19.384515679357836
1734296249.994891,99.08,90.23,101.42,101.11,4.434134820375931,19.384515679357836
1734296250.1207137,99.08,90.23,101.42,101.11,4.434134820375931,19.384515679357836
1734296250.2549417,99.11,90.23,101.42,101.11,3.719491832591558,19.855214369321047
1734296250.3749266,99.11,90.23,101.42,101.11,4.155584694578565,19.855214369321047
1734296250.5125525,99.11,90.23,101.39,101.11,4.155584694578565,19.855214369321047
1734296250.6330335,99.11,90.23,101.42,101.13,4.155584694578565,19.855214369321047
1734296250.7612412,99.11,90.23,101.42,101.16,4.155584694578565,19.855214369321047
1734296250.890121,99.11,90.23,101.42,101.16,4.588740411095486,19.855214369321047
1734296251.0200613,99.11,90.23,101.42,101.16,4.786447630237291,19.855214369321047
1734296251.140107,99.11,90.23,101.39,101.16,4.786447630237291,19.855214369321047
1734296251.271736,99.11,90.23,101.39,101.16,4.318525169895409,20.32313682966293
1734296251.401898,99.11,90.23,101.36,101.16,5.219204972494623,19.855214369321047
1734296251.5280402,99.11,90.23,101.36,101.16,4.848064820011047,20.026089094116585
1734296251.652814,99.11,90.23,101.36,101.16,3.946614232414703,20.49734054800183
1734296251.76959,99.11,90.23,101.34,101.16,3.946614232414703,20.49734054800183
1734296251.9015985,99.11,90.23,101.34,101.16,3.946614232414703,20.49734054800183
1734296252.0356195,99.11,90.23,101.36,101.16,3.946614232414703,20.49734054800183
1734296252.1528316,99.11,90.23,101.36,101.19,4.376813366125802,20.49734054800183
1734296252.2850013,99.11,90.23,101.36,101.21,5.173356259877423,20.965711840557415
1734296252.41703,99.14,90.23,101.36,101.24,5.599339336520572,20.965711840557415
1734296252.544764,99.14,90.23,101.34,101.21,4.9192939697153975,21.4311672762332
1734296252.670649,99.16,90.23,101.34,101.21,5.347673130721908,21.4311672762332
1734296252.7957902,99.19,90.23,101.31,101.24,5.373111638962236,21.614778942786245
1734296252.9229803,99.21,90.23,101.31,101.24,5.373111638962236,21.614778942786245
1734296253.052091,99.24,90.23,101.31,101.24,5.373111638962236,21.614778942786245
1734296253.177025,99.27,90.23,101.31,101.24,6.011183924555965,21.614778942786245
1734296253.294802,99.29,90.23,101.34,101.27,6.011183924555965,21.614778942786245
1734296253.4335637,99.29,90.23,101.34,101.29,5.123565908536257,22.080445167533355
1734296253.557992,99.29,90.23,101.34,101.32,6.011183924555965,21.614778942786245
1734296253.6873295,99.29,90.23,101.34,101.32,5.545517699808855,22.080445167533355
1734296253.814225,99.32,90.2,101.34,101.34,5.545517699808855,22.080445167533355
1734296253.935271,99.34,90.2,101.34,101.37,5.545517699808855,22.080445167533355
1734296254.0579755,99.37,90.23,101.34,101.37,5.767133092254809,22.080445167533355
1734296254.1882515,99.37,90.23,101.31,101.37,5.767133092254809,22.080445167533355
1734296254.322008,99.37,90.23,101.31,101.34,5.767133092254809,22.080445167533355
1734296254.4420686,99.4,90.23,101.34,101.34,5.767133092254809,22.080445167533355
1734296254.5732582,99.4,90.23,101.34,101.32,6.188067619595763,22.080445167533355
1734296254.6964817,99.4,90.23,101.36,101.32,6.188067619595763,22.080445167533355
1734296254.8299634,99.37,90.23,101.36,101.34,6.188067619595763,22.080445167533355
1734296254.952622,99.37,90.23,101.39,101.34,6.188067619595763,22.080445167533355
1734296255.0686305,99.37,90.23,101.39,101.37,5.532507904547664,22.73600488258145
1734296255.2073674,99.37,90.23,101.39,101.37,5.950142691157978,22.73600488258145
1734296255.330906,99.4,90.23,101.39,101.37,6.36447252896199,22.73600488258145
1734296255.4648008,99.42,90.23,101.36,101.37,6.36447252896199,22.73600488258145
1734296255.5918,99.45,90.23,101.36,101.37,6.595834695666063,22.73600488258145
1734296255.7087607,99.45,90.25,101.36,101.37,6.595834695666063,22.73600488258145
1734296255.8436875,99.45,90.25,101.36,101.34,5.716833827978519,23.198590513648185
1734296255.9677052,99.45,90.23,101.36,101.34,6.133249064599333,23.198590513648185
1734296256.0906107,99.47,90.23,101.39,101.34,6.133249064599333,23.198590513648185
1734296256.2264333,99.45,90.23,101.39,101.34,6.133249064599333,23.198590513648185
1734296256.353507,99.45,90.23,101.36,101.37,6.546290783294033,23.198590513648185
1734296256.4789212,99.45,90.23,101.36,101.4,6.7830488552011445,23.198590513648185
1734296256.6071024,99.45,90.23,101.34,101.4,6.7830488552011445,23.198590513648185
1734296256.729394,99.47,90.23,101.34,101.4,6.7830488552011445,23.198590513648185
1734296256.8545322,99.47,90.23,101.31,101.4,6.7830488552011445,23.198590513648185
1734296256.986342,99.47,90.23,101.28,101.4,6.7830488552011445,23.198590513648185
1734296257.1155891,99.47,90.23,101.26,101.37,6.347117381016169,23.39776391592605
1734296257.2423637,99.47,90.23,101.23,101.34,6.347117381016169,23.39776391592605
1734296257.3560655,99.47,90.23,101.23,101.34,6.347117381016169,23.39776391592605
1734296257.4880054,99.47,90.23,101.23,101.34,6.7830488552011445,23.198590513648185
1734296257.6234517,99.47,90.23,101.2,101.34,7.194672131904817,23.198590513648185
1734296257.7495346,99.47,90.23,101.18,101.37,6.533087454210666,23.860175191342336
1734296257.8767204,99.47,90.23,101.18,101.37,6.533087454210666,23.860175191342336
1734296258.0031493,99.47,90.23,101.18,101.37,6.941270784794497,23.860175191342336
1734296258.1215584,99.5,90.23,101.18,101.37,6.941270784794497,23.860175191342336
1734296258.2538254,99.5,90.23,101.18,101.37,6.941270784794497,23.860175191342336
1734296258.3834286,99.5,90.23,101.15,101.37,6.941270784794497,23.860175191342336
1734296258.5023687,99.5,90.23,101.18,101.34,6.941270784794497,23.860175191342336
1734296258.6335127,99.5,90.23,101.18,101.34,6.941270784794497,23.860175191342336
1734296258.7619617,99.5,90.23,101.2,101.37,6.941270784794497,23.860175191342336
