Time(s),R1(O),R2(O),R3(O),R4(O),Angle1(deg),Angle2(deg)
1734216096.325272,85.42,176.97,166.84,103.08,11.39,31.68
1734216096.4479675,85.42,176.4,165.94,102.52,11.530000000000001,31.68
1734216096.5750856,84.82,173.71,163.31,101.21,11.530000000000001,31.68
1734216096.7019231,84.11,171.46,160.96,100.32,11.530000000000001,31.68
1734216096.8287272,83.33,170.03,158.79,99.07,11.530000000000001,31.68
1734216096.951683,82.42,167.99,156.66,97.78,11.39,31.68
1734216097.078396,81.88,165.65,155.34,96.64,46.93,
1734216097.2015736,81.09,163.22,153.79,95.54,11.310000000000002,31.61
1734216097.327984,80.23,160.6,151.32,94.64,11.120000000000001,31.8
1734216097.454872,79.41,158.17,148.98,94.22,11.310000000000002,31.61
1734216097.5819817,78.81,156.66,147.7,93.1,11.27,31.8
1734216097.709242,78.51,155.48,145.75,91.89,11.27,31.8
1734216097.8364527,78.03,153.66,143.76,90.7,11.27,31.8
1734216097.963195,77.2,152.12,141.8,89.53,11.120000000000001,31.8
1734216098.0898166,76.31,150.56,139.87,88.79,11.27,31.8
1734216098.2167995,75.54,149.02,138.54,87.7,11.27,31.8
1734216098.3439343,74.67,147.09,137.82,87.07,11.419999999999998,31.8
1734216098.4668446,74.37,146.97,139.18,87.64,11.419999999999998,31.8
1734216098.593749,74.2,146.56,138.99,87.59,11.27,31.8
1734216098.7215817,74.12,145.51,138.65,88.19,11.530000000000001,31.68
1734216098.8483193,74.22,145.03,139.26,88.39,11.530000000000001,31.68
1734216098.9744978,74.35,145.84,138.58,88.28,11.530000000000001,31.68
1734216099.1018674,74.69,146.16,138.01,88.07,11.27,31.8
1734216099.229073,74.69,147.29,138.27,87.75,11.27,31.8
1734216099.3554747,74.51,148.03,138.54,87.36,11.120000000000001,31.8
1734216099.4826326,74.33,147.99,138.12,87.32,11.120000000000001,31.8
1734216099.610018,73.79,146.56,138.58,87.34,11.419999999999998,31.8
1734216099.7369602,73.4,146.0,138.99,87.87,11.68,31.68
1734216099.8593466,73.36,145.11,139.6,88.44,11.68,31.68
1734216099.9860835,73.42,144.36,139.3,88.28,11.419999999999998,31.8
1734216100.1138566,73.46,143.68,139.18,88.6,11.419999999999998,31.8
1734216100.240778,73.73,143.88,138.5,88.51,46.78,
1734216100.3671997,73.93,144.12,137.22,88.19,11.419999999999998,31.8
1734216100.494505,73.96,145.15,137.56,87.87,11.559999999999999,31.8
1734216100.6214182,73.89,145.84,137.78,87.2,46.64,
1734216100.747967,73.75,146.36,137.71,87.45,46.64,
1734216100.8756683,73.29,145.31,138.09,87.5,11.75,31.61
1734216100.99874,72.8,144.75,138.39,87.64,46.64,
1734216101.1255028,72.94,143.96,138.24,88.0,11.559999999999999,31.8
1734216101.2525492,73.07,143.21,137.93,87.91,46.64,
1734216101.3795254,73.09,142.5,137.45,88.21,46.78,
1734216101.5061398,73.42,142.97,136.59,88.14,11.61,31.61
1734216101.6326928,73.38,143.13,135.96,87.52,11.61,31.61
1734216101.759894,73.36,144.08,136.0,87.39,47.08,
1734216101.8873923,73.32,144.83,136.25,87.11,47.08,
1734216102.0139115,73.19,145.31,136.44,87.09,11.120000000000001,31.8
1734216102.1411886,73.05,145.35,137.33,87.25,11.120000000000001,31.8
1734216102.264187,72.84,145.07,137.82,87.07,11.120000000000001,31.8
1734216102.391283,73.17,144.36,137.63,87.48,11.120000000000001,31.8
1734216102.518186,73.27,143.72,137.41,87.77,11.120000000000001,31.8
1734216102.6448133,73.4,143.29,136.66,87.27,11.120000000000001,31.8
1734216102.77151,73.63,143.37,136.74,87.64,11.120000000000001,31.8
1734216102.8990772,73.65,143.52,136.29,87.5,11.120000000000001,31.8
1734216103.025175,73.46,144.16,136.4,87.52,11.120000000000001,31.8
1734216103.1529808,73.48,145.03,136.63,87.29,10.98,31.49
1734216103.279982,73.34,144.79,137.41,86.95,11.189999999999998,31.0
1734216103.406695,73.02,144.47,139.03,87.52,10.39,30.89
1734216103.5289829,73.07,144.32,139.56,87.7,10.540000000000003,30.59
1734216103.656661,73.46,143.96,138.8,87.68,10.75,30.4
1734216103.783754,73.52,143.25,139.41,88.51,10.589999999999996,30.1
1734216103.9098966,74.1,143.8,138.96,88.16,10.189999999999998,30.21
1734216104.0376854,74.61,144.0,138.2,88.03,10.239999999999998,30.02
1734216104.164347,74.88,144.36,137.71,87.89,9.95,29.99
1734216104.2916715,74.41,144.91,137.78,87.48,9.98,29.8
1734216104.418201,74.43,145.8,138.16,87.2,9.84,29.8
1734216104.5451076,74.3,145.43,138.96,87.25,9.84,29.8
1734216104.6724465,74.02,145.23,138.96,87.29,9.899999999999999,29.61
1734216104.7954936,74.14,145.31,139.53,87.5,9.789999999999996,29.69
1734216104.921661,74.45,145.35,139.64,87.52,9.499999999999996,29.69
1734216105.0487487,74.45,144.51,140.14,88.26,9.499999999999996,29.69
1734216105.1763608,74.73,145.59,140.33,88.3,9.499999999999996,29.69
1734216105.302939,75.3,146.08,138.92,87.73,9.689999999999998,29.53
1734216105.4302385,75.64,146.6,138.58,87.61,9.75,29.33
1734216105.5572217,75.3,147.01,138.69,87.23,9.610000000000003,29.31
1734216105.6842947,75.22,147.74,138.05,86.89,9.77,29.31
1734216105.8103905,74.69,146.56,138.5,86.89,9.610000000000003,29.31
1734216105.9376738,74.04,146.12,139.07,86.95,9.739999999999998,29.31
1734216106.0606482,73.94,146.04,139.83,87.16,9.610000000000003,29.31
1734216106.187135,74.0,146.0,140.56,87.64,9.739999999999998,29.31
1734216106.3146458,74.0,145.11,140.21,88.35,9.23,29.69
1734216106.4414916,74.3,145.31,140.25,88.51,9.359999999999996,29.69
1734216106.572662,74.57,145.43,139.45,87.98,51.08,
1734216106.6999705,74.86,145.71,139.03,87.7,9.690000000000001,29.23
1734216106.8261604,74.84,145.76,138.96,87.29,9.819999999999997,29.23
1734216106.9536445,75.1,146.93,138.65,86.59,9.819999999999997,29.23
1734216107.080228,74.9,146.85,137.86,86.59,9.739999999999998,29.31
1734216107.207544,74.63,147.29,138.92,86.73,9.739999999999998,29.31
1734216107.3384273,74.28,146.72,140.25,87.29,9.739999999999998,29.31
1734216107.4655511,74.26,145.59,140.6,87.36,9.739999999999998,29.31
1734216107.5926712,74.32,144.87,140.33,87.7,9.739999999999998,29.31
1734216107.7193222,74.32,145.63,140.37,88.35,9.989999999999998,29.2
1734216107.8469515,74.43,145.8,139.68,88.62,9.989999999999998,29.2
1734216107.9737017,74.65,145.8,138.92,88.44,9.739999999999998,29.31
1734216108.1000762,74.94,144.91,138.01,87.91,9.739999999999998,29.31
1734216108.2278297,75.44,145.35,138.16,87.18,9.739999999999998,29.31
1734216108.358668,75.22,146.44,137.22,87.02,9.739999999999998,29.31
1734216108.4857452,75.24,148.32,137.67,87.14,9.580000000000002,29.31
1734216108.6123023,74.94,148.77,137.94,87.29,51.54,
1734216108.739148,74.67,147.58,138.54,87.32,9.16,29.01
1734216108.8667336,74.71,146.6,139.07,87.39,52.29,
1734216108.9931085,74.77,145.84,139.3,87.52,9.259999999999998,28.03
1734216109.1207197,74.51,144.95,138.09,87.8,8.799999999999997,28.03
1734216109.2476654,74.61,145.03,137.3,88.09,8.899999999999999,27.93
1734216109.3741412,74.77,145.27,136.74,88.0,8.500000000000004,27.74
1734216109.5006254,75.44,145.67,137.0,87.25,53.93,
1734216109.631827,75.75,145.23,135.92,86.61,54.05,
1734216109.7591767,75.97,146.48,136.22,86.41,8.43,27.35
1734216109.8864205,75.73,147.33,136.48,86.52,54.68,
1734216110.0129373,75.48,147.95,136.7,86.64,54.39,
1734216110.139892,75.28,148.4,137.6,86.82,8.27,27.05
1734216110.267143,75.36,147.42,138.2,86.98,8.150000000000002,27.05
1734216110.393739,75.46,146.52,138.65,87.14,8.099999999999998,27.05
1734216110.5209055,75.58,145.88,138.27,87.57,8.170000000000002,26.86
1734216110.6475554,75.68,146.08,137.41,87.91,8.170000000000002,26.86
1734216110.7749577,75.46,145.88,136.51,88.56,8.07,26.96
1734216110.9064667,75.73,145.92,135.92,88.37,8.07,26.96
1734216111.032622,76.37,147.29,136.25,88.07,7.610000000000003,27.24
1734216111.1596136,76.55,147.46,136.33,87.7,7.890000000000001,26.96
1734216111.286633,76.43,148.11,136.44,87.73,55.27,
1734216111.413589,76.11,148.89,136.66,87.8,55.44,
1734216111.5452375,75.85,149.47,137.19,87.87,55.44,
1734216111.6718292,75.89,149.06,137.97,87.91,7.700000000000003,26.86
1734216111.7991571,75.91,148.11,138.54,87.98,7.700000000000003,26.86
1734216111.92601,75.93,147.29,138.84,88.05,7.700000000000003,26.86
1734216112.0526989,75.62,146.36,137.75,88.76,7.700000000000003,26.86
1734216112.1802728,75.64,146.4,137.22,88.99,55.44,
1734216112.3066146,75.38,145.51,136.37,89.11,7.700000000000003,26.86
1734216112.4341178,75.58,145.47,136.37,88.65,7.700000000000003,26.86
1734216112.5609765,75.81,145.39,136.48,88.28,7.800000000000001,26.76
1734216112.6873395,76.29,145.84,136.66,87.55,7.800000000000001,26.76
1734216112.8191948,75.99,146.68,137.04,87.61,7.800000000000001,26.76
1734216112.946222,75.66,147.25,137.19,87.64,7.800000000000001,26.76
1734216113.0730314,75.52,147.91,136.89,87.25,55.27,
1734216113.1991885,75.5,146.97,137.48,87.32,55.44,
1734216113.3263133,75.52,146.04,137.93,87.39,55.44,
1734216113.4535587,75.56,145.31,138.24,87.73,55.44,
1734216113.5806415,75.24,144.36,137.07,87.93,55.61,
1734216113.708095,75.18,144.28,136.96,88.62,7.900000000000002,26.66
1734216113.834691,75.5,144.43,136.48,88.49,8.090000000000003,26.18
1734216113.965927,76.13,144.83,136.66,87.64,7.809999999999999,25.88
1734216114.092522,76.29,144.99,136.7,87.25,7.18,25.4
1734216114.219838,76.51,147.01,137.04,87.02,6.899999999999999,25.11
1734216114.3466923,76.21,147.83,137.3,87.09,6.539999999999999,24.82
1734216114.4735467,75.91,148.28,137.52,87.14,6.140000000000001,24.93
1734216114.6010091,75.68,147.91,138.35,87.25,5.879999999999999,24.44
1734216114.7276018,75.7,146.97,138.92,87.32,5.889999999999997,23.85
1734216114.8547766,75.73,146.08,139.22,87.41,5.809999999999999,23.57
1734216114.9856024,75.79,145.47,138.77,87.75,5.259999999999998,23.37
1734216115.1122072,76.07,146.68,138.39,88.09,4.969999999999999,23.37
1734216115.2393055,75.75,146.48,137.52,88.67,5.169999999999998,22.89
1734216115.3667943,75.93,146.4,136.85,88.19,4.580000000000002,23.11
1734216115.4940405,76.55,147.09,137.15,87.89,4.800000000000001,22.8
1734216115.6245992,76.76,147.38,136.51,87.04,4.690000000000001,22.72
1734216115.751174,76.63,149.43,137.0,87.14,4.310000000000002,22.72
1734216115.8786628,75.89,149.81,137.6,87.57,4.420000000000002,22.52
1734216116.0049658,75.6,150.22,137.78,87.59,4.140000000000001,22.52
1734216116.132321,75.62,149.1,138.54,87.64,63.72,
1734216116.26359,75.6,148.19,139.03,87.68,63.81,
1734216116.3908334,75.85,148.73,139.68,87.82,64.0,
1734216116.5178015,75.52,148.56,139.26,88.56,64.19,
1734216116.6441147,75.42,149.39,139.37,88.9,64.28,
1734216116.771691,75.14,148.48,138.65,89.41,4.039999999999999,21.96
1734216116.9026444,75.3,148.4,138.5,88.95,4.169999999999998,21.64
1734216117.029824,75.6,148.69,138.46,88.53,3.5799999999999983,21.96
1734216117.156736,75.73,148.81,139.22,88.19,64.46,
1734216117.2837496,75.42,148.85,139.37,88.21,3.9599999999999973,21.76
1734216117.410728,75.1,149.47,139.53,88.23,4.279999999999998,21.44
1734216117.5418007,74.84,150.02,139.45,88.28,4.079999999999998,21.64
1734216117.6683245,74.88,148.89,140.06,88.26,3.719999999999999,21.64
1734216117.7955904,75.04,148.24,140.18,87.89,3.700000000000003,21.56
1734216117.9226985,75.04,147.38,140.52,87.96,3.8200000000000003,21.44
1734216118.0496686,74.71,146.32,139.3,88.6,3.5100000000000016,21.56
1734216118.1765912,74.65,146.93,139.37,89.16,64.93,
1734216118.3036225,74.45,146.08,138.46,89.27,3.5100000000000016,21.56
1734216118.4306326,74.81,146.32,137.93,88.37,64.93,
1734216118.5568404,75.08,145.43,137.07,87.84,4.100000000000001,21.16
1734216118.68384,75.56,145.84,137.22,87.16,64.74,
1734216118.8156722,75.26,146.72,137.3,87.18,3.710000000000001,21.36
1734216118.9422398,74.92,147.33,137.45,87.2,3.900000000000002,21.36
1734216119.0685835,74.79,148.03,137.15,86.84,4.100000000000001,21.16
1734216119.1956148,74.79,147.83,137.86,86.89,65.02,
1734216119.323253,74.81,146.85,138.35,86.93,3.900000000000002,21.36
1734216119.4504335,74.84,146.08,138.69,87.07,65.02,
1734216119.5765908,74.57,145.15,137.48,87.32,3.620000000000001,21.36
1734216119.7035832,74.49,145.03,137.3,88.0,3.620000000000001,21.36
1734216119.8313692,74.63,145.23,136.74,87.87,3.620000000000001,21.36
1734216119.9581354,75.28,145.67,137.0,87.09,65.02,
1734216120.0893226,75.54,145.23,135.92,86.41,65.21,
1734216120.2154877,75.73,146.72,136.29,86.16,3.620000000000001,21.36
1734216120.3427217,75.46,147.54,136.51,86.21,65.02,
1734216120.4698296,75.16,148.11,136.74,86.25,65.02,
1734216120.596506,74.94,147.78,137.6,86.34,65.02,
1734216120.724323,74.98,146.81,138.16,86.46,65.02,
1734216120.8512516,75.04,145.96,138.5,86.57,3.7300000000000004,21.16
1734216120.9781277,75.14,145.31,138.09,86.93,3.530000000000001,21.36
1734216121.1052125,75.22,145.47,137.22,87.23,3.289999999999999,21.6
1734216121.231578,74.98,145.27,136.33,87.8,3.289999999999999,21.6
1734216121.3632598,75.24,145.31,135.74,87.59,3.370000000000001,21.52
1734216121.490252,75.85,146.64,136.07,87.32,3.7300000000000004,21.16
1734216121.617142,76.03,146.85,136.18,87.0,65.11,
1734216121.743599,75.89,147.46,136.29,87.04,65.11,
1734216121.8706484,75.58,148.19,136.51,87.11,65.02,
1734216122.0018525,75.36,148.73,137.07,87.2,3.8200000000000003,21.16
1734216122.1287737,75.4,148.07,137.75,87.25,3.91,21.44
1734216122.255713,75.44,147.17,138.31,87.36,4.390000000000001,21.52
1734216122.3826897,75.72,147.54,139.07,87.59,4.350000000000001,21.84
1734216122.5095692,75.79,147.66,138.12,87.96,63.53,
1734216122.6366277,75.81,147.66,137.56,88.21,62.68,
1734216122.7676325,75.95,147.17,136.92,88.12,4.579999999999998,22.92
1734216122.895141,76.11,147.01,137.71,88.23,4.960000000000001,23.2
1734216123.0212927,76.39,147.09,137.75,87.98,4.960000000000001,23.48
1734216123.1483126,77.06,147.7,138.09,87.41,4.960000000000001,23.48
1734216123.275319,76.86,148.65,138.5,87.61,5.219999999999999,23.77
1734216123.4030724,76.65,148.56,138.58,87.77,5.239999999999998,23.96
1734216123.5339825,76.63,149.23,138.24,87.57,60.33,
1734216123.660566,77.02,149.47,139.37,87.89,5.690000000000001,24.16
1734216123.7875092,76.8,148.28,139.64,88.58,5.489999999999998,24.25
1734216123.9145625,76.9,147.5,139.87,88.83,60.15,
1734216124.0416372,76.76,146.64,138.77,89.72,59.86,
1734216124.168818,76.8,146.48,138.77,90.66,59.58,
1734216124.2994845,76.78,145.67,137.82,90.94,59.5,
1734216124.4267,76.94,145.67,137.86,90.59,59.5,
1734216124.5533922,77.28,145.88,137.93,90.37,5.879999999999999,24.62
1734216124.6803665,77.52,146.04,138.01,90.52,5.98,24.62
1734216124.807851,77.38,147.05,137.45,90.21,59.4,
1734216124.9340725,77.42,148.77,138.05,90.44,6.629999999999999,24.62
1734216125.0655594,76.76,148.77,138.77,91.06,6.050000000000001,25.02
1734216125.192921,76.76,147.58,139.37,91.13,59.11,
1734216125.3192894,76.82,146.77,140.02,91.3,6.34,24.91
1734216125.446211,76.88,146.04,140.1,91.46,6.34,24.91
1734216125.5735564,76.7,145.11,138.8,91.75,58.75,
1734216125.7007332,76.82,145.19,138.8,92.09,6.530000000000001,24.43
1734216125.8269875,76.98,145.35,138.27,91.99,6.34,24.62
1734216125.9542863,77.67,145.8,138.5,91.27,6.629999999999999,24.62
1734216126.0850267,77.97,146.12,137.6,90.42,6.23,25.02
1734216126.2120552,78.16,147.38,137.93,90.21,58.57,
1734216126.3391037,77.87,148.24,138.16,90.26,58.75,
1734216126.466419,77.63,148.73,138.35,90.4,58.75,
1734216126.5936973,77.44,149.02,139.22,90.59,58.46,
1734216126.7205243,77.5,148.07,139.68,90.75,6.25,25.11
1734216126.847689,77.61,147.21,140.02,90.89,58.64,
1734216126.977849,77.71,146.56,140.33,91.42,6.329999999999998,25.21
1734216127.1048522,77.79,146.56,139.49,91.8,6.43,25.11
1734216127.2319012,77.56,146.28,138.5,92.5,6.629999999999999,24.91
1734216127.3595076,77.65,146.36,138.05,92.33,6.34,25.2
1734216127.4862027,78.28,147.66,138.35,92.04,6.059999999999999,25.3
1734216127.617109,78.44,147.78,138.5,91.68,5.949999999999999,25.41
1734216127.744627,78.53,147.66,138.58,91.73,6.539999999999999,25.11
1734216127.8715527,78.18,148.44,138.73,91.8,6.219999999999999,25.5
1734216127.9987226,77.91,149.06,139.11,91.89,6.719999999999999,25.11
1734216128.1252208,77.97,148.61,139.26,91.94,6.73,25.21
1734216128.2525947,77.95,147.54,139.83,92.18,6.439999999999998,25.21
1734216128.3788157,77.93,146.56,140.21,92.25,6.920000000000002,25.02
1734216128.506143,77.61,145.63,139.03,93.05,6.439999999999998,25.21
1734216128.6334016,77.63,145.63,138.39,93.34,58.35,
1734216128.764094,77.36,144.79,137.48,93.51,6.629999999999999,25.02
1734216128.8911765,77.75,145.03,136.25,92.5,6.239999999999998,25.41
1734216129.0180428,78.01,145.03,136.33,92.11,6.239999999999998,25.41
1734216129.144737,78.55,145.43,136.48,91.35,58.35,
1734216129.2717004,78.42,146.32,136.59,91.39,6.629999999999999,25.02
1734216129.3993478,78.05,147.01,136.74,91.42,6.629999999999999,25.02
1734216129.5259988,77.93,147.74,136.37,91.01,6.539999999999999,24.82
1734216129.64913,77.69,147.42,137.04,91.06,6.719999999999999,24.53
