Time(s),R1(O),R2(O),R3(O),R4(O)
1734216649.104511,86.43,175.58,165.13,107.25
1734216649.2279177,86.40,175.58,165.13,107.25
1734216649.3538198,85.51,172.65,162.38,105.82
1734216649.4812663,84.53,169.64,159.60,104.39
1734216649.6084664,83.59,166.79,158.88,104.28
1734216649.7358525,82.70,164.05,156.22,102.89
1734216649.8581705,81.73,161.19,153.53,101.50
1734216649.9853182,80.82,158.39,153.10,100.92
1734216650.1081889,79.92,155.74,150.56,99.56
1734216650.2351756,79.02,153.14,148.07,99.27
1734216650.3624036,78.10,152.03,147.74,98.50
1734216650.4849675,77.20,149.47,145.27,97.17
1734216650.611462,76.33,147.01,142.81,96.97
1734216650.734681,75.46,146.44,142.70,96.14
1734216650.862153,74.59,144.00,140.33,94.84
1734216650.9891906,73.75,141.64,139.60,94.72
1734216651.1154268,73.00,139.45,137.37,93.46
1734216651.2391834,72.90,139.30,137.26,93.44
1734216651.365914,72.92,139.26,139.22,94.15
1734216651.4888554,72.90,139.22,137.56,92.98
1734216651.6157084,72.86,139.15,137.56,93.95
1734216651.7384908,72.88,140.71,139.68,94.52
1734216651.8648748,72.88,140.79,137.75,93.78
1734216651.9881504,72.88,140.79,137.67,94.86
1734216652.1158068,72.86,142.54,139.76,94.32
1734216652.24201,72.88,141.14,137.75,93.78
1734216652.3653789,72.88,141.18,139.34,94.94
1734216652.49182,72.92,141.26,139.45,93.88
1734216652.6193779,72.90,139.41,137.22,93.42
1734216652.7463589,72.92,139.37,139.15,93.42
1734216652.8693326,72.92,139.37,137.60,92.28
1734216652.9957492,72.86,139.30,137.56,93.22
1734216653.1193495,72.88,140.87,139.64,93.78
1734216653.2459667,72.86,140.95,137.67,93.05
1734216653.3685205,72.88,140.95,137.60,94.13
1734216653.495553,72.86,142.74,139.76,93.59
1734216653.622849,72.82,141.18,137.67,93.00
1734216653.7456157,72.80,141.18,139.30,94.15
1734216653.872243,72.84,141.29,139.41,93.10
1734216653.9998078,72.82,139.45,137.26,92.62
1734216654.1264558,72.82,139.41,139.18,92.62
1734216654.249529,72.84,139.41,137.63,91.49
1734216654.3765028,72.80,139.34,137.60,92.42
1734216654.4987202,72.82,140.91,139.68,92.98
1734216654.6254585,72.80,140.98,137.75,92.98
1734216654.7490554,72.80,140.98,137.67,94.05
1734216654.875463,72.78,142.74,139.79,93.54
1734216655.003136,72.78,141.18,137.75,92.95
1734216655.126137,72.78,141.18,139.34,94.13
1734216655.2531338,72.82,141.29,139.45,93.08
1734216655.379552,72.80,139.45,137.22,92.57
1734216655.506177,72.84,139.41,139.18,92.59
1734216655.6300597,72.86,139.41,137.60,91.46
1734216655.7563207,72.82,139.34,137.56,92.40
1734216655.880813,72.84,140.95,139.68,92.98
1734216656.0065355,72.84,141.02,137.75,92.95
1734216656.1294947,72.84,141.06,137.67,94.03
1734216656.2563944,72.82,142.81,139.76,93.51
1734216656.3829842,72.82,141.26,137.71,92.93
1734216656.506434,72.82,141.26,139.30,94.08
1734216656.633411,72.86,141.37,139.41,93.03
1734216656.7603242,72.80,139.53,137.22,92.54
1734216656.8863986,72.80,139.49,139.18,93.27
1734216657.009466,72.82,139.49,137.63,92.13
1734216657.1371958,72.78,139.41,137.60,93.10
1734216657.2599611,72.80,140.98,139.72,93.71
1734216657.3869913,72.80,141.06,137.75,93.68
1734216657.5093808,72.78,141.06,137.67,94.77
1734216657.6367457,72.77,142.81,139.76,94.25
1734216657.7630208,72.77,141.22,137.67,93.66
1734216657.8867023,72.77,141.22,139.26,94.84
1734216658.0137396,72.80,141.29,139.37,93.78
1734216658.139779,72.78,139.49,137.26,93.29
1734216658.2676718,72.78,139.45,139.22,94.03
1734216658.3903716,72.80,139.45,137.67,92.88
1734216658.5127652,72.77,139.37,137.63,93.83
1734216658.6398199,72.82,140.98,139.76,94.40
1734216658.7669213,72.82,141.06,137.78,93.66
1734216658.8898807,72.80,141.06,137.71,94.74
1734216659.0163445,72.78,142.81,139.87,94.17
1734216659.1402037,72.77,141.26,137.78,93.59
1734216659.270428,72.77,141.26,139.41,94.77
1734216659.3970103,72.82,141.33,139.53,93.68
1734216659.5250447,72.86,139.64,137.52,94.20
1734216659.6511006,73.05,139.98,137.75,94.30
1734216659.77903,73.13,140.14,136.33,93.20
1734216659.9053643,73.05,139.98,137.71,94.30
1734216660.0328465,73.21,140.21,137.90,94.37
1734216660.159952,73.25,140.37,136.03,94.64
1734216660.286137,73.40,140.71,136.22,94.72
1734216660.4176047,73.46,140.83,136.33,93.78
1734216660.54509,73.44,139.26,135.77,94.37
1734216660.6711075,73.58,139.45,135.96,94.44
1734216660.799151,73.61,139.53,136.07,94.35
1734216660.9258094,73.81,138.12,134.09,93.98
1734216661.0528836,73.91,138.31,134.23,94.05
1734216661.1791723,73.89,138.27,134.09,94.03
1734216661.3068037,73.96,138.39,134.20,94.08
1734216661.4368029,73.96,138.39,134.20,94.10
1734216661.5643663,73.94,138.43,134.20,94.10
1734216661.691793,73.93,138.43,134.20,94.10
1734216661.817843,73.93,138.43,134.20,94.10
1734216661.9455547,73.93,138.43,134.20,94.10
1734216662.0719225,73.93,138.43,134.20,94.10
1734216662.1993313,73.93,138.43,134.20,94.10
1734216662.3266692,73.93,138.43,134.20,94.10
1734216662.45385,73.93,138.46,134.16,94.10
1734216662.5804448,73.93,138.46,134.16,94.10
1734216662.711747,73.93,138.46,134.20,94.10
1734216662.8386145,73.91,138.46,134.31,94.10
1734216662.9653184,73.91,138.46,134.31,94.10
1734216663.0921574,73.91,138.50,134.34,94.10
1734216663.219281,73.91,138.50,134.34,94.13
1734216663.3461463,73.91,138.50,134.34,94.10
1734216663.473134,73.91,138.50,134.34,94.10
1734216663.6004426,73.93,138.50,134.34,94.10
1734216663.7268841,73.93,138.54,134.38,94.10
1734216663.8543825,73.93,138.58,134.34,94.13
1734216663.9852502,73.93,138.58,134.38,94.13
1734216664.1124232,73.93,138.58,134.42,94.13
1734216664.2386177,73.93,138.58,134.42,94.13
1734216664.3663278,74.24,139.03,133.29,93.10
1734216664.4927459,74.24,139.03,133.29,93.12
1734216664.6202228,74.94,139.41,133.44,92.23
1734216664.7466826,74.75,140.60,135.19,92.69
1734216664.874091,74.67,140.45,135.07,92.64
1734216665.0005307,74.71,140.48,135.26,92.69
1734216665.1276705,74.69,140.48,135.26,92.66
1734216665.2586877,74.69,140.52,135.26,92.69
1734216665.3863122,74.69,140.52,135.30,92.69
1734216665.512487,74.69,140.52,135.30,92.69
1734216665.640092,74.69,140.52,135.26,92.66
1734216665.7666755,74.69,140.48,135.30,92.66
1734216665.8932612,74.69,140.48,135.30,92.66
1734216666.0205393,74.69,140.48,135.26,92.66
1734216666.1474473,74.69,140.48,135.26,92.66
1734216666.2746513,74.37,140.02,136.44,93.68
1734216666.40114,74.37,139.98,136.44,93.68
1734216666.532371,73.67,139.60,136.29,94.59
1734216666.6598182,73.87,138.43,134.49,94.13
1734216666.7868445,73.94,138.58,134.60,94.17
1734216666.913606,73.91,138.54,134.38,94.13
1734216667.0402846,73.93,138.58,134.38,94.15
1734216667.1670458,73.93,138.54,134.38,94.27
1734216667.2952256,73.93,138.54,134.38,94.42
1734216667.4217975,73.93,138.58,134.38,94.59
1734216667.547762,73.93,138.58,134.42,94.82
1734216667.676035,73.93,138.58,134.45,95.06
1734216667.8065567,73.93,138.58,134.45,95.29
1734216667.9337623,73.94,138.58,134.49,95.46
1734216668.0604517,73.94,138.61,134.49,95.66
1734216668.1871452,73.94,138.61,134.45,95.86
1734216668.3141863,73.94,138.69,134.49,96.04
1734216668.4414523,73.94,138.73,134.49,96.24
1734216668.568566,73.96,138.73,134.53,96.39
1734216668.6950324,73.96,138.73,134.53,96.54
1734216668.8223584,74.28,139.18,133.44,95.64
1734216668.953399,74.28,139.15,133.47,95.78
1734216669.0768259,75.00,139.56,133.65,94.86
1734216669.207689,74.81,140.71,135.41,95.34
1734216669.3340423,74.73,140.52,135.30,95.24
1734216669.461182,74.77,140.60,135.48,95.24
1734216669.588662,74.75,140.64,135.44,95.11
1734216669.715564,74.75,140.68,135.44,95.06
1734216669.8424492,74.75,140.68,135.44,95.04
1734216669.9694977,74.75,140.68,135.48,94.96
1734216670.096475,74.77,140.68,135.52,94.91
1734216670.2233357,74.77,140.68,135.52,94.86
1734216670.3537512,74.77,140.68,135.52,94.84
1734216670.481336,74.77,140.68,135.52,94.84
1734216670.607599,74.77,140.71,135.52,94.84
1734216670.7355328,74.45,140.25,136.70,95.88
1734216670.8624628,74.45,140.29,136.70,95.86
1734216670.9892776,73.73,139.91,136.51,96.82
1734216671.1158438,73.94,138.80,134.67,96.34
1734216671.24315,74.02,138.99,134.82,96.41
1734216671.3743553,73.98,138.92,134.64,96.36
1734216671.5010345,74.00,138.92,134.67,96.36
1734216671.6285686,74.00,138.92,134.67,96.34
1734216671.7550607,74.00,138.96,134.67,96.34
1734216671.8819485,73.98,138.96,134.67,96.34
1734216672.0089056,73.96,138.99,134.67,96.34
1734216672.1361291,73.96,138.99,134.67,96.34
1734216672.2628393,73.96,138.99,134.71,96.34
1734216672.3900356,73.96,139.03,134.75,96.34
1734216672.5165794,73.96,139.03,134.78,96.34
1734216672.6480718,73.98,139.07,134.78,96.36
1734216672.774339,73.98,139.11,134.82,96.39
1734216672.901327,73.98,139.15,134.86,96.39
1734216673.028046,73.98,139.15,134.96,96.41
1734216673.1557922,73.98,139.15,134.96,96.44
1734216673.2831283,73.98,139.18,135.04,96.51
1734216673.4095693,73.98,139.22,135.08,96.59
1734216673.5369735,73.98,139.22,135.11,96.66
1734216673.6639717,73.98,139.22,135.15,96.71
1734216673.7901604,74.00,139.26,135.15,96.74
1734216673.922196,74.02,139.26,135.22,96.84
1734216674.0484118,74.02,139.30,135.22,96.89
1734216674.176048,74.04,139.34,135.26,96.94
1734216674.3028007,74.04,139.37,135.30,96.99
1734216674.4292538,74.06,139.41,135.33,97.02
1734216674.5569296,74.06,139.45,135.37,97.04
1734216674.6831322,74.06,139.45,135.41,97.07
1734216674.8103802,74.06,139.45,135.44,97.09
1734216674.9373076,74.06,139.49,135.48,97.09
1734216675.0646644,74.06,139.53,135.52,97.07
1734216675.1955416,74.08,139.53,135.48,97.02
1734216675.3226612,74.08,139.53,135.48,96.97
1734216675.4489586,74.10,139.56,135.52,96.94
1734216675.5758584,74.10,139.60,135.55,96.92
1734216675.7034743,74.12,139.60,135.59,96.92
1734216675.8306081,74.12,139.60,135.55,96.82
1734216675.9578354,74.12,139.60,135.63,96.82
1734216676.0841944,74.10,139.60,135.63,96.79
1734216676.2116077,74.10,139.56,135.63,96.79
1734216676.338447,74.10,139.56,135.63,96.82
1734216676.4690356,74.10,139.53,135.66,96.84
1734216676.5958452,74.10,139.49,135.66,96.87
1734216676.7230587,74.10,139.49,135.66,96.92
1734216676.8503897,74.10,139.49,135.66,96.97
1734216676.9773426,74.10,139.49,135.66,96.99
1734216677.1045349,74.10,139.49,135.70,97.07
1734216677.2314775,74.10,139.53,135.74,97.14
1734216677.3585274,74.08,139.53,135.74,97.27
1734216677.4850597,74.08,139.53,135.74,97.40
1734216677.6118717,74.06,139.53,135.74,97.42
1734216677.743388,74.06,139.56,135.77,97.47
1734216677.8704464,74.06,139.56,135.77,97.45
1734216677.9965558,74.06,139.56,135.77,97.45
1734216678.12423,74.06,139.60,135.77,97.42
1734216678.2505825,74.04,139.60,135.77,97.40
1734216678.3778212,74.04,139.64,135.66,97.40
1734216678.5048418,74.04,139.68,135.66,97.37
1734216678.6316178,74.04,139.68,135.66,97.35
1734216678.7586386,74.04,139.68,135.66,97.30
1734216678.8861327,74.06,139.68,135.66,97.30
1734216679.0172234,74.04,139.68,135.63,97.27
1734216679.1436393,74.02,139.64,135.63,97.20
1734216679.2707138,74.02,139.64,135.63,97.04
1734216679.3975642,74.02,139.60,135.63,96.92
1734216679.524742,74.02,139.60,135.63,96.89
1734216679.65195,74.02,139.56,135.66,96.87
1734216679.7790232,74.02,139.56,135.63,96.87
1734216679.9056845,74.02,139.56,135.63,96.84
